Time (s),XX,XY,XZ,YX,YY,YZ,ZX,ZY,ZZ
0.000000000,0.9887147,-0.06988724,0.06439245,0.07532823,0.9866727,-0.08604504,-0.05793332,0.09051998,0.9874441
0.002476692,0.9887491,-0.06993104,0.06381097,0.07527775,0.986738,-0.08533373,-0.05740601,0.08976767,0.9875431
0.004953861,0.9887817,-0.06997198,0.06325258,0.07522751,0.9868023,-0.08462579,-0.05690156,0.08902036,0.9876393
0.007430553,0.9888113,-0.07001929,0.06273505,0.07519032,0.9868621,-0.08395775,-0.05643406,0.0883164,0.9877291
0.009908199,0.9888427,-0.07006367,0.06218986,0.07514735,0.9869237,-0.08327007,-0.0559408,0.08759058,0.9878218
0.012384415,0.9888754,-0.07010479,0.06161295,0.07509937,0.9869841,-0.08258753,-0.05541589,0.08686733,0.9879145
0.014862061,0.9889059,-0.07014193,0.06108309,0.07505293,0.9870437,-0.08191635,-0.05493715,0.08615882,0.9880033
0.027246475,0.9890481,-0.07031237,0.05852389,0.07483269,0.9873186,-0.07873145,-0.05262074,0.08279339,0.9884157
0.029723644,0.9890743,-0.07035137,0.05802915,0.07479595,0.9873732,-0.07807603,-0.05217531,0.08210351,0.9884965
0.032200336,0.989101,-0.07038295,0.05752942,0.07475469,0.9874236,-0.07747153,-0.05172166,0.08146375,0.9885728
0.034677982,0.9891282,-0.07041569,0.05701597,0.07471371,0.9874743,-0.07686001,-0.05125478,0.08081602,0.98865
0.037154198,0.9891522,-0.07044286,0.05656321,0.07467222,0.9875253,-0.07623956,-0.0508493,0.08016368,0.9887238
0.039631844,0.9891783,-0.07047004,0.05607681,0.07462871,0.9875764,-0.07562089,-0.05041022,0.07951061,0.9887992
0.042108536,0.9892023,-0.07049804,0.05560848,0.07458875,0.9876251,-0.07501601,-0.04998796,0.07887274,0.9888711
0.044585705,0.9892256,-0.07052967,0.05515119,0.07455459,0.987672,-0.07442633,-0.04957519,0.07825109,0.988941
0.047062397,0.9892496,-0.07055701,0.05468133,0.07451523,0.9877198,-0.07382693,-0.04915099,0.07761858,0.9890118
0.049539566,0.9892744,-0.07058609,0.05419336,0.07447816,0.9877651,-0.07325608,-0.04870646,0.07701333,0.989081
0.052016258,0.9892986,-0.07061085,0.05371967,0.07443757,0.9878117,-0.07266744,-0.04827777,0.07639121,0.9891502
0.054493427,0.9893202,-0.07062884,0.05328883,0.07439317,0.987859,-0.07206051,-0.04789352,0.07575373,0.9892173
0.056970119,0.9893426,-0.07065044,0.05284622,0.0743532,0.9879044,-0.07147895,-0.04749537,0.07514089,0.9892833
0.059447289,0.9893663,-0.07067845,0.05235488,0.07431794,0.9879463,-0.07092798,-0.04704594,0.07455528,0.9893485
0.061923981,0.9893879,-0.07070145,0.05191654,0.07428282,0.9879874,-0.0703911,-0.04664853,0.07398749,0.98941
0.064401627,0.9894079,-0.07072617,0.05149452,0.07425207,0.988026,-0.06987492,-0.04626562,0.07344169,0.9894682
0.066878319,0.9894278,-0.07075242,0.05107744,0.07422251,0.9880664,-0.06933477,-0.0458893,0.07287241,0.9895278
0.069355488,0.9894465,-0.07077684,0.05068407,0.07419485,0.9881039,-0.06882803,-0.04553416,0.07233818,0.9895834
0.071832180,0.9894667,-0.07080554,0.05023698,0.07416856,0.9881396,-0.06833409,-0.04512431,0.07181294,0.9896398
0.074309349,0.9894882,-0.07082895,0.04977688,0.07413482,0.9881787,-0.06780311,-0.04470465,0.07124951,0.9896995
0.076786041,0.9895081,-0.07084716,0.04935169,0.07409883,0.9882175,-0.06727134,-0.04432012,0.07068768,0.9897568
0.079263210,0.9895273,-0.07087306,0.04892546,0.07407098,0.9882554,-0.06674156,-0.04393383,0.07012813,0.9898136
0.081739903,0.9895453,-0.07089467,0.04852663,0.07404178,0.9882922,-0.06622486,-0.04357411,0.06958351,0.9898677
0.084217072,0.9895635,-0.07091595,0.04812635,0.07401408,0.9883265,-0.0657431,-0.04321034,0.06907364,0.9899194
0.086693764,0.9895825,-0.07093583,0.04770618,0.07398543,0.9883584,-0.06529446,-0.04282438,0.06859532,0.9899695
0.089171410,0.9896013,-0.07095259,0.04729265,0.07395232,0.9883938,-0.06479522,-0.042449,0.06806686,0.9900221
0.091648102,0.9896178,-0.07096979,0.04690887,0.07392113,0.9884297,-0.06427298,-0.04210487,0.0675177,0.9900737
0.094125271,0.9896345,-0.07098883,0.04652994,0.07389463,0.9884623,-0.06380191,-0.04176162,0.06702006,0.9901221
0.096601963,0.9896511,-0.07101391,0.04613769,0.07387298,0.9884952,-0.06331488,-0.04140587,0.06650575,0.9901717
0.099079132,0.9896691,-0.07103299,0.04571226,0.07384528,0.9885252,-0.06287102,-0.04101428,0.06603185,0.9902192
0.101555824,0.9896861,-0.07104921,0.04531751,0.07381686,0.9885558,-0.06242076,-0.04065387,0.06555372,0.9902658
0.104032993,0.9897024,-0.07106465,0.04493757,0.0737894,0.9885856,-0.06198044,-0.04030748,0.06508661,0.9903107
0.106509686,0.9897174,-0.07108422,0.04457452,0.07376703,0.9886155,-0.06152833,-0.03997849,0.06460916,0.9903553
0.108986378,0.9897321,-0.07110071,0.04421559,0.07374251,0.9886445,-0.06108481,-0.03965316,0.06414047,0.9903984
0.111463547,0.9897482,-0.07111919,0.04382262,0.07371798,0.9886737,-0.06063846,-0.03929401,0.06366652,0.9904432
0.113940239,0.9897634,-0.07112954,0.04346253,0.07368831,0.9887025,-0.06020527,-0.03896711,0.06320783,0.9904855
0.116417408,0.9897768,-0.07114042,0.04314022,0.07366237,0.98873,-0.05978515,-0.03867678,0.06276503,0.9905251
0.118894100,0.9897891,-0.07115369,0.04282433,0.0736386,0.9887578,-0.05934229,-0.03839437,0.06230011,0.9905648
0.121371746,0.9898028,-0.07116456,0.04249016,0.07361256,0.9887848,-0.05892509,-0.03809199,0.06185935,0.9906041
0.123848438,0.9898171,-0.07117368,0.0421419,0.0735845,0.9888111,-0.05851698,-0.03777501,0.06142658,0.9906431
0.126325607,0.9898301,-0.07118732,0.0418124,0.07356256,0.9888365,-0.0581127,-0.03747613,0.0609992,0.9906808
0.128802300,0.9898441,-0.07120866,0.04143523,0.07354558,0.9888613,-0.05770573,-0.03712951,0.06056591,0.9907201
0.131279469,0.9898567,-0.07121594,0.04112348,0.07351924,0.9888862,-0.05731061,-0.03684796,0.06014876,0.9907559
0.133756161,0.9898687,-0.07122867,0.04081089,0.07349847,0.9889107,-0.05691372,-0.03656537,0.05973001,0.9907917
0.136233330,0.9898794,-0.07124481,0.04052388,0.07348242,0.9889355,-0.05650403,-0.03630898,0.0593005,0.990827
0.138710022,0.9898899,-0.07125775,0.04024519,0.07346424,0.9889595,-0.05610408,-0.03606033,0.0588812,0.9908609
0.141187191,0.9899019,-0.07126463,0.03992766,0.07343907,0.9889818,-0.05573541,-0.03577106,0.05849005,0.9908942
0.143663883,0.9899137,-0.07127932,0.03960399,0.07342148,0.9890038,-0.05536398,-0.03547539,0.05809598,0.9909278
0.146141529,0.9899264,-0.07129198,0.03927368,0.07340174,0.9890264,-0.05499348,-0.03517316,0.05770229,0.9909619
0.148618221,0.9899388,-0.07129955,0.03894397,0.07337605,0.9890506,-0.05459015,-0.03487423,0.0572757,0.9909971
0.151095390,0.9899501,-0.07130534,0.03863565,0.07335066,0.9890733,-0.05420335,-0.03459546,0.05686714,0.99103
0.153572083,0.9899628,-0.07131784,0.03829827,0.07333168,0.9890944,-0.05384939,-0.03428494,0.05648945,0.9910627
0.156049252,0.9899731,-0.07133061,0.03800329,0.07331597,0.9891141,-0.05350617,-0.03401582,0.05612561,0.9910925
0.158525944,0.9899826,-0.07133623,0.0377316,0.0732946,0.9891337,-0.05316266,-0.03377031,0.05576297,0.9911208
0.161003113,0.9899929,-0.07134579,0.03744581,0.07327557,0.9891552,-0.05278924,-0.03351272,0.05536958,0.9911517
0.163479805,0.9900028,-0.07134967,0.0371714,0.07325273,0.9891748,-0.05244675,-0.03326449,0.0550077,0.9911799
0.165956974,0.9900133,-0.07135647,0.03687962,0.07323269,0.9891935,-0.05212386,-0.03299735,0.05466424,0.9912079
0.168433666,0.9900246,-0.07136502,0.03655867,0.07321186,0.9892138,-0.05176602,-0.03270363,0.05428378,0.9912385
0.170911312,0.9900349,-0.07137474,0.0362582,0.0731937,0.9892334,-0.05141354,-0.03242983,0.05391025,0.9912677
0.173388004,0.9900451,-0.07138339,0.03596103,0.073176,0.9892511,-0.0510963,-0.03215678,0.0535721,0.9912949
0.175865173,0.9900543,-0.07138255,0.03569853,0.07314986,0.9892707,-0.05074825,-0.03192101,0.05320545,0.9913219
0.178341866,0.9900633,-0.07138663,0.0354443,0.07312968,0.9892894,-0.05041298,-0.03169226,0.05285231,0.9913482
0.180819035,0.9900715,-0.07139564,0.03519313,0.07311466,0.9893075,-0.0500748,-0.03146651,0.05249668,0.9913741
0.183295727,0.9900802,-0.07140581,0.0349252,0.07309891,0.9893275,-0.0496995,-0.03122671,0.05210281,0.9914023
0.185772896,0.9900891,-0.07141326,0.03465783,0.07308179,0.9893457,-0.04935946,-0.03098503,0.05174408,0.9914287
0.188249588,0.9900981,-0.07141712,0.03440131,0.07306296,0.9893626,-0.049057,-0.03075156,0.05142355,0.991453
0.190726757,0.9901058,-0.07142236,0.03416332,0.07304632,0.989379,-0.0487446,-0.0305372,0.05109449,0.9914764
0.193203449,0.9901142,-0.07143479,0.03389549,0.07303553,0.9893952,-0.04843367,-0.03029264,0.05076496,0.9915009
0.195681095,0.9901225,-0.07144485,0.03362001,0.0730224,0.9894105,-0.04813017,-0.03004003,0.05044219,0.9915245
0.198157311,0.9901309,-0.07144888,0.03336295,0.07300396,0.9894271,-0.04781508,-0.0298069,0.05010904,0.9915484
0.200634956,0.9901388,-0.07144925,0.03312573,0.07298335,0.9894432,-0.04751137,-0.02959289,0.0497886,0.9915709
0.203111649,0.9901468,-0.07144932,0.03288917,0.07296265,0.9894593,-0.04720835,-0.02937948,0.0494689,0.9915932
0.205588818,0.9901546,-0.07144308,0.03265946,0.07293695,0.9894741,-0.04693331,-0.02917115,0.04917743,0.9916136
0.208065510,0.9901619,-0.07144465,0.0324344,0.07291939,0.9894884,-0.04665814,-0.02896705,0.04888642,0.991634
0.210542679,0.9901698,-0.07144685,0.03219998,0.07290149,0.989504,-0.04636054,-0.02875524,0.04857236,0.9916559
0.213019371,0.9901768,-0.07144585,0.03197142,0.07288031,0.9895198,-0.04604553,-0.0285507,0.04824128,0.9916775
0.215496540,0.9901851,-0.07144914,0.03170687,0.07286247,0.9895347,-0.04575314,-0.02830841,0.04793025,0.9916995
0.220450878,0.9901993,-0.07145756,0.03124042,0.07283257,0.9895629,-0.04518623,-0.02788485,0.04733069,0.9917403
0.222927094,0.9902062,-0.07145573,0.03102542,0.07281229,0.9895779,-0.04489044,-0.0276924,0.04701977,0.9917604
0.225404739,0.9902129,-0.07145399,0.03081043,0.07279219,0.9895925,-0.04459346,-0.02750004,0.04670769,0.9917802
0.227881432,0.9902192,-0.0714571,0.03060035,0.07277803,0.9896057,-0.04432325,-0.02731037,0.04642279,0.9917989
0.230358601,0.9902264,-0.07146192,0.03035255,0.07276414,0.9896184,-0.04406023,-0.0270825,0.04614238,0.9918181
0.232835293,0.9902334,-0.07146319,0.03012071,0.07274734,0.9896317,-0.0437886,-0.02687133,0.04585445,0.9918371
0.235312462,0.9902399,-0.07146105,0.02990934,0.07272805,0.9896452,-0.04351142,-0.02668111,0.04556239,0.9918557
0.237789154,0.9902465,-0.07145566,0.02971321,0.07270654,0.989659,-0.04324267,-0.02650559,0.04527976,0.9918736
0.240266323,0.9902524,-0.07145543,0.02951694,0.07269054,0.9896713,-0.04298409,-0.02632894,0.04500742,0.9918907
0.242743015,0.9902569,-0.0714564,0.02934874,0.07267702,0.9896832,-0.04272176,-0.02618048,0.04473343,0.9919065
0.245220184,0.9902633,-0.07145412,0.02913853,0.07265838,0.989696,-0.04245693,-0.02599048,0.0444538,0.991924
0.247696877,0.9902685,-0.07145777,0.02895404,0.07264721,0.9897076,-0.04220337,-0.02582501,0.04418743,0.9919403
0.250174522,0.9902746,-0.07145672,0.02875869,0.07263149,0.9897191,-0.04197008,-0.02564745,0.0439404,0.9919562
0.252651215,0.9902796,-0.07145835,0.02856909,0.07261823,0.9897304,-0.04171462,-0.0254771,0.04367172,0.991972
0.255128384,0.9902845,-0.07146233,0.02838166,0.0726079,0.989741,-0.04147548,-0.02530762,0.04341956,0.9919872
0.257605076,0.9902905,-0.07146125,0.02819046,0.0725928,0.989752,-0.04124988,-0.02513361,0.04318051,0.9920024
0.260082245,0.9902958,-0.07145692,0.02801424,0.0725752,0.9897625,-0.04102603,-0.02497454,0.04294421,0.9920167
0.262558937,0.9903013,-0.07144951,0.02784082,0.07255416,0.9897744,-0.04077861,-0.02482009,0.04268453,0.9920318
0.265036106,0.990306,-0.07145613,0.02765685,0.07254644,0.9897856,-0.04051749,-0.02465553,0.04241077,0.9920476
0.267512798,0.9903116,-0.07146478,0.02742453,0.07253929,0.9897957,-0.04027712,-0.02444119,0.04215424,0.9920636
0.269989967,0.9903176,-0.0714585,0.02722652,0.0725195,0.9898059,-0.0400671,-0.02425945,0.04193012,0.9920776
0.272466660,0.9903228,-0.07145476,0.02703054,0.07250128,0.9898171,-0.03980911,-0.02408312,0.04165836,0.992093
0.274944305,0.9903284,-0.07145593,0.0268375,0.0724886,0.9898282,-0.03956791,-0.02390828,0.04140369,0.9921082
0.277420998,0.9903324,-0.07145355,0.02667388,0.0724734,0.9898387,-0.0393163,-0.02376364,0.0411407,0.992122
0.279898167,0.9903373,-0.07145142,0.02650016,0.07245857,0.989849,-0.039083,-0.0236076,0.04089524,0.9921359
0.282374859,0.990342,-0.07144913,0.02633073,0.07244366,0.9898596,-0.03884266,-0.02345635,0.04064307,0.9921498
0.284852028,0.9903477,-0.07144784,0.02613802,0.07242977,0.989869,-0.03863961,-0.02327913,0.04042644,0.9921633
0.287328720,0.9903526,-0.07144665,0.02593781,0.07241533,0.9898782,-0.03841841,-0.02309577,0.04019117,0.9921767
0.289805889,0.9903572,-0.07144427,0.02576738,0.07240096,0.9898878,-0.03819659,-0.02294215,0.03995741,0.9921896
0.292282581,0.9903619,-0.07143651,0.02560124,0.07238151,0.9898975,-0.03797675,-0.02279289,0.03972582,0.9922022
0.294759750,0.9903674,-0.07142929,0.02540768,0.07236161,0.9899073,-0.03775792,-0.02261619,0.03949328,0.9922155
0.297236443,0.9903721,-0.0714267,0.02523271,0.0723478,0.9899156,-0.03756787,-0.02245573,0.03929089,0.9922272
0.299714089,0.9903769,-0.07142433,0.02505038,0.07233398,0.9899238,-0.03737776,-0.02228793,0.03908793,0.992239
0.302190781,0.9903821,-0.07141893,0.02487854,0.07231763,0.9899326,-0.03718821,-0.02213066,0.03888623,0.9922509
0.304667950,0.9903864,-0.07141615,0.02471225,0.07230399,0.9899409,-0.03699035,-0.02197941,0.03867669,0.9922623
0.307144642,0.9903912,-0.0714053,0.02454581,0.07228247,0.9899495,-0.03679822,-0.02182791,0.0384727,0.9922735
0.309621811,0.9903955,-0.07140245,0.02436591,0.07226828,0.9899577,-0.036596,-0.02166341,0.03825783,0.992285
0.312098503,0.9903999,-0.07140196,0.02420455,0.07225732,0.9899662,-0.03639801,-0.02151698,0.03804859,0.9922966
0.314575672,0.9904035,-0.07139866,0.02404771,0.07224376,0.989974,-0.03619915,-0.02137522,0.03783875,0.9923072
0.317052364,0.9904076,-0.07140078,0.02387568,0.07223529,0.9899817,-0.0360087,-0.0212175,0.03763631,0.9923184
0.319529533,0.990411,-0.07139904,0.02374013,0.07222418,0.9899898,-0.03580794,-0.02109703,0.03742617,0.9923289
0.322006226,0.9904158,-0.07138801,0.02357356,0.07220259,0.9899987,-0.03560391,-0.02094624,0.0372103,0.9923402
0.324483872,0.9904202,-0.07137953,0.02341061,0.07218424,0.9900064,-0.03542161,-0.02079736,0.03701644,0.9923505
0.326960087,0.9904249,-0.07137382,0.02323231,0.07216795,0.9900146,-0.03523049,-0.02063372,0.03681273,0.9923615
0.329436779,0.9904298,-0.07136338,0.02304489,0.07214647,0.990023,-0.03503031,-0.02046181,0.03659923,0.9923728
0.331914425,0.9904338,-0.071359,0.0228999,0.07213283,0.9900311,-0.03483758,-0.02033143,0.03639637,0.9923832
0.334391594,0.9904374,-0.07136058,0.0227385,0.07212498,0.9900377,-0.03466285,-0.02018316,0.0362104,0.992393
0.336868286,0.9904411,-0.07135394,0.0225997,0.07210875,0.9900469,-0.03443722,-0.02006139,0.03597512,0.992404
0.339344978,0.9904448,-0.07134762,0.02244153,0.07209282,0.9900544,-0.03424199,-0.0199181,0.03576877,0.992414
0.341822147,0.9904477,-0.07134505,0.02232547,0.07208253,0.9900613,-0.03406416,-0.01981539,0.03558292,0.9924228
0.344298840,0.9904504,-0.07134269,0.02220912,0.07207243,0.9900682,-0.03388235,-0.01971266,0.03539308,0.9924315
0.346776009,0.9904536,-0.07134359,0.02206508,0.07206459,0.9900751,-0.03369827,-0.01958237,0.03519902,0.9924411
0.349252701,0.9904573,-0.07133932,0.02191917,0.07205157,0.9900824,-0.03351345,-0.01945047,0.035004,0.9924507
0.351729870,0.9904606,-0.07133237,0.02177374,0.07203582,0.9900896,-0.03332388,-0.01931947,0.03480423,0.9924598
0.354206562,0.9904644,-0.07132232,0.02163411,0.07201751,0.9900969,-0.03314717,-0.01919341,0.03461767,0.9924688
0.356684208,0.9904671,-0.07131971,0.02151652,0.07200767,0.9901031,-0.03298313,-0.01908816,0.03444545,0.9924768
0.359160900,0.9904712,-0.0713132,0.02135195,0.07199199,0.9901103,-0.03280012,-0.01893757,0.03425086,0.9924865
0.361638069,0.9904743,-0.07131119,0.02121641,0.07198241,0.9901161,-0.03264602,-0.01881368,0.03408731,0.9924944
0.364114761,0.9904768,-0.07131143,0.02109423,0.07197571,0.9901214,-0.03249872,-0.01870252,0.03393153,0.9925018
0.366591930,0.9904801,-0.07130588,0.02097805,0.07196303,0.9901283,-0.03232891,-0.01859918,0.03375363,0.9925102
0.369068623,0.9904829,-0.07130633,0.0208378,0.07195576,0.9901338,-0.03216866,-0.01847094,0.03358363,0.9925182
0.371545792,0.9904862,-0.07129913,0.02069491,0.07194144,0.9901387,-0.03204396,-0.01833776,0.03344879,0.992525
0.374022484,0.9904891,-0.0712969,0.02056419,0.07193173,0.9901448,-0.03187467,-0.01821976,0.03327043,0.9925331
0.376499653,0.9904917,-0.07129707,0.02043569,0.07192468,0.9901506,-0.03171283,-0.01810335,0.03309969,0.992541
0.378976345,0.9904954,-0.07129017,0.02027672,0.07190948,0.9901569,-0.0315458,-0.01795717,0.03292146,0.9925495
0.381453991,0.9904986,-0.07128825,0.02012626,0.07189936,0.9901634,-0.03136538,-0.01782027,0.03273058,0.9925582
0.383930206,0.990501,-0.0712852,0.0200192,0.07189023,0.9901686,-0.03122095,-0.01772407,0.03257872,0.9925649
0.386407852,0.9905038,-0.07128499,0.01990106,0.07188344,0.9901744,-0.03106708,-0.01761742,0.03241669,0.9925725
0.388884544,0.9905062,-0.07127862,0.01980712,0.07187144,0.9901798,-0.03092104,-0.01753452,0.03226412,0.992579
0.391361714,0.9905092,-0.07127075,0.01968122,0.07185726,0.9901847,-0.03079279,-0.01741852,0.03212696,0.9925854
0.393838406,0.9905119,-0.07126535,0.01956165,0.07184565,0.9901897,-0.03065733,-0.01730927,0.03198311,0.9925919
0.396315575,0.9905136,-0.07126469,0.01945208,0.07183857,0.990195,-0.03048894,-0.01721222,0.03180721,0.9925988
0.398792267,0.9905159,-0.07126136,0.01934702,0.07182929,0.9902002,-0.03033816,-0.01711846,0.03164916,0.9926053
0.401269436,0.9905189,-0.07125052,0.01923393,0.0718128,0.9902051,-0.03021742,-0.01701477,0.03152037,0.9926112
0.403746128,0.9905217,-0.07124443,0.01913666,0.07180116,0.9902108,-0.03007193,-0.01692849,0.03136811,0.992618
0.406223774,0.9905237,-0.0712433,0.01903343,0.07179388,0.9902165,-0.0299005,-0.01683797,0.03118965,0.9926251
0.408699989,0.9905261,-0.07123487,0.01892458,0.07177977,0.9902213,-0.02976402,-0.01673956,0.03104552,0.992631
0.411177635,0.9905288,-0.07122651,0.01881299,0.07176599,0.9902259,-0.02964837,-0.0166369,0.03092197,0.9926366
0.413654327,0.9905314,-0.07122349,0.01869392,0.07175725,0.9902303,-0.02952632,-0.01652709,0.03079158,0.9926426
0.416131497,0.9905333,-0.07122003,0.01859074,0.07174836,0.9902346,-0.02939041,-0.01643413,0.03064851,0.9926482
0.418608189,0.9905357,-0.07121379,0.01848309,0.0717371,0.9902385,-0.02928593,-0.01633453,0.03053643,0.9926533
0.421085358,0.9905387,-0.07121063,0.01836098,0.07172809,0.9902434,-0.02915661,-0.0162222,0.03039858,0.9926597
0.423562050,0.9905412,-0.07120216,0.01824142,0.07171364,0.9902483,-0.02901236,-0.01611365,0.03024594,0.9926658
0.426039219,0.9905433,-0.07119851,0.01814435,0.07170478,0.9902532,-0.02887057,-0.0160272,0.03009745,0.9926718
0.428515911,0.990546,-0.07119296,0.01801194,0.07169319,0.9902576,-0.02874343,-0.0159045,0.029961,0.9926779
0.430993557,0.9905486,-0.07118662,0.01790235,0.07168163,0.990262,-0.02862115,-0.01580425,0.02983103,0.9926834
0.433469772,0.9905508,-0.07118031,0.01779526,0.07166999,0.9902667,-0.02848659,-0.01570736,0.02968899,0.9926891
0.435947418,0.9905531,-0.07117395,0.01769225,0.07165855,0.9902712,-0.02835828,-0.01561408,0.02955348,0.9926946
0.438424111,0.9905553,-0.07116957,0.01761237,0.07165004,0.9902754,-0.02824531,-0.01554269,0.02943498,0.9926997
0.440901280,0.9905572,-0.07116849,0.01750363,0.07164388,0.9902792,-0.02812505,-0.01544296,0.02930717,0.9927049
0.443377972,0.9905591,-0.07116459,0.0174141,0.07163549,0.9902833,-0.02800454,-0.01536249,0.02918046,0.9927099
0.445855141,0.9905607,-0.07115997,0.01734189,0.07162711,0.9902869,-0.02789686,-0.01529838,0.02906778,0.9927142
0.448331833,0.9905623,-0.0711612,0.01724415,0.0716238,0.9902902,-0.02778697,-0.01520879,0.02895115,0.9927189
0.450809002,0.9905643,-0.07116057,0.01712172,0.07161801,0.9902934,-0.02768016,-0.01509444,0.02883579,0.9927239
0.453285694,0.9905658,-0.07115893,0.01703776,0.0716121,0.9902972,-0.02755856,-0.01501952,0.02870842,0.9927287
0.455762863,0.9905679,-0.07115501,0.01693511,0.07160364,0.9903008,-0.02745247,-0.01492492,0.02859515,0.9927334
0.458239555,0.9905695,-0.07115633,0.01683258,0.0716003,0.9903042,-0.02733703,-0.01483095,0.02847265,0.9927382
